Theta,Phi
-51.174,131.490
-51.184,131.588
-51.192,131.686
-51.201,131.784
-51.219,131.979
-51.227,132.078
-51.236,132.176
-51.244,132.274
-51.252,132.372
-51.260,132.470
-51.268,132.568
-51.276,132.666
-51.284,132.765
-51.292,132.863
-51.308,133.060
-51.315,133.158
-51.323,133.257
-51.330,133.355
-51.337,133.454
-51.344,133.552
-51.351,133.651
-51.358,133.749
-51.365,133.848
-51.372,133.947
-51.386,134.144
-51.392,134.243
-51.398,134.342
-51.405,134.441
-51.411,134.539
-51.417,134.638
-51.423,134.737
-51.429,134.836
-51.435,134.935
-51.441,135.034
-51.452,135.232
-51.458,135.331
-51.464,135.430
-51.469,135.529
-51.474,135.628
-51.479,135.728
-51.484,135.827
-51.489,135.926
-51.499,136.124
-51.504,136.224
-51.509,136.323
-51.513,136.422
-51.518,136.522
-51.522,136.621
-51.526,136.720
-51.535,136.919
-51.539,137.019
-51.542,137.118
-51.546,137.218
-51.550,137.317
-51.554,137.417
-51.558,137.516
-51.561,137.616
-51.564,137.715
-51.568,137.815
-51.574,138.014
-51.577,138.114
-51.580,138.213
-51.582,138.313
-51.585,138.412
-51.588,138.512
-51.591,138.612
-51.593,138.711
-51.595,138.811
-51.598,138.911
-51.602,139.110
-51.604,139.210
-51.606,139.310
-51.608,139.409
-51.609,139.509
-51.611,139.609
-51.613,139.709
-51.614,139.809
-51.615,139.908
-51.616,140.008
-51.619,140.208
-51.620,140.308
-51.621,140.407
-51.621,140.507
-51.622,140.607
-51.623,140.707
-51.623,140.807
-51.624,140.906
-51.624,141.006
-51.624,141.106
-51.624,141.306
-51.624,141.406
-51.624,141.506
-51.624,141.605
-51.624,141.705
-51.623,141.805
-51.623,141.905
-51.622,142.004
-51.622,142.104
-51.620,142.304
-51.619,142.404
-51.618,142.504
-51.617,142.603
-51.616,142.703
-51.614,142.803
-51.613,142.903
-51.611,143.002
-51.610,143.102
-51.608,143.202
-51.604,143.402
-51.602,143.501
-51.601,143.601
-51.598,143.701
-51.596,143.801
-51.594,143.900
-51.591,144.000
-51.589,144.099
-51.586,144.199
-51.584,144.299
-51.578,144.498
-51.575,144.598
-51.572,144.697
-51.569,144.797
-51.566,144.896
-51.562,144.996
-51.559,145.096
-51.555,145.195
-51.552,145.294
-51.548,145.394
-51.540,145.593
-51.536,145.692
-51.532,145.792
-51.528,145.891
-51.524,145.991
-51.519,146.090
-51.515,146.189
-51.511,146.289
-51.506,146.388
-51.501,146.487
-51.491,146.686
-51.487,146.785
-51.481,146.884
-51.476,146.983
-51.471,147.082
-51.466,147.181
-51.460,147.281
-51.455,147.380
-51.449,147.479
-51.438,147.677
-51.432,147.776
-51.426,147.874
-51.420,147.973
-51.414,148.072
-51.407,148.171
-51.401,148.270
-51.394,148.369
-51.388,148.468
-51.381,148.566
-51.368,148.764
-51.361,148.862
-51.354,148.961
-51.347,149.059
-51.340,149.158
-51.332,149.257
-51.325,149.355
-51.318,149.454
-51.310,149.552
-51.303,149.650
-51.287,149.847
-51.279,149.945
-51.271,150.044
-51.263,150.142
-51.255,150.240
-51.247,150.338
-51.239,150.436
-51.230,150.534
-51.222,150.632
-51.213,150.730
-51.196,150.926
-51.187,151.024
-51.178,151.122
-51.169,151.220
-51.160,151.318
-51.151,151.415
-51.141,151.513
-51.132,151.611
-51.122,151.708
-51.113,151.806
-51.094,152.001
-51.084,152.098
-51.074,152.195
-51.064,152.293
-51.054,152.390
-51.044,152.487
-51.033,152.584
-51.023,152.682
-51.012,152.779
-50.991,152.973
-50.981,153.070
-50.970,153.167
-50.959,153.264
-50.948,153.360
-50.937,153.457
-50.926,153.554
-50.915,153.651
-50.903,153.747
-50.892,153.844
-50.869,154.037
-50.857,154.133
-50.846,154.230
-50.834,154.326
-50.822,154.422
-50.810,154.519
-50.798,154.615
-50.786,154.711
-50.773,154.807
-50.761,154.903
-50.736,155.095
-50.723,155.191
-50.711,155.286
-50.698,155.382
-50.685,155.478
-50.672,155.574
-50.659,155.669
-50.646,155.765
-50.633,155.860
-50.619,155.956
-50.593,156.146
-50.579,156.242
-50.566,156.337
-50.552,156.432
-50.538,156.527
-50.524,156.622
-50.510,156.717
-50.496,156.812
-50.482,156.907
-50.468,157.001
-50.439,157.191
-50.424,157.286
-50.410,157.380
-50.395,157.474
-50.381,157.569
-50.366,157.663
-50.351,157.758
-50.336,157.852
-50.321,157.946
-50.291,158.134
-50.275,158.228
-50.260,158.322
-50.244,158.416
-50.229,158.510
-50.213,158.603
-50.198,158.697
-50.182,158.791
-50.166,158.884
-50.150,158.978
-50.118,159.164
-50.102,159.258
-50.085,159.351
-50.069,159.444
-50.052,159.537
-50.036,159.630
-50.019,159.723
-50.002,159.816
-49.986,159.909
-49.969,160.002
-49.935,160.187
-49.918,160.279
-49.901,160.372
-49.883,160.464
-49.866,160.557
-49.849,160.649
-49.831,160.741
-49.814,160.833
-49.796,160.925
-49.778,161.017
-49.742,161.201
-49.724,161.293
-49.706,161.384
-49.688,161.476
-49.670,161.568
-49.652,161.659
-49.633,161.751
-49.615,161.842
-49.596,161.933
-49.578,162.024
-49.541,162.206
-49.522,162.297
-49.503,162.388
-49.484,162.479
-49.464,162.570
-49.446,162.661
-49.426,162.751
-49.407,162.842
-49.388,162.932
-49.349,163.113
-49.329,163.203
-49.309,163.293
-49.289,163.383
-49.269,163.473
-49.250,163.563
-49.230,163.653
-49.209,163.743
-49.189,163.832
-49.169,163.922
-49.128,164.101
-49.108,164.191
-49.088,164.280
-49.067,164.369
-49.046,164.458
-49.026,164.547
-49.004,164.636
-48.984,164.725
-48.963,164.814
-48.921,164.992
-48.899,165.080
-48.878,165.169
-48.857,165.257
-48.835,165.346
-48.814,165.434
-48.792,165.522
-48.771,165.610
-48.727,165.786
-48.705,165.874
-48.683,165.962
-48.661,166.050
-48.639,166.137
-48.617,166.225
-48.594,166.312
-48.572,166.400
-48.550,166.487
-48.527,166.574
-48.482,166.749
-48.460,166.836
-48.437,166.922
-48.414,167.009
-48.391,167.096
-48.368,167.183
-48.345,167.269
-48.322,167.356
-48.299,167.442
-48.276,167.529
-48.229,167.701
-48.206,167.787
-48.182,167.873
-48.158,167.959
-48.135,168.045
-48.111,168.131
-48.087,168.216
-48.063,168.302
-48.039,168.388
-47.991,168.558
-47.967,168.644
-47.943,168.729
-47.918,168.814
-47.894,168.899
-47.869,168.984
-47.845,169.069
-47.821,169.154
-47.796,169.238
-47.771,169.323
-47.721,169.492
-47.697,169.576
-47.672,169.660
-47.646,169.744
-47.621,169.829
-47.596,169.912
-47.571,169.997
-47.546,170.080
-47.520,170.164
-47.495,170.248
-47.444,170.415
-47.418,170.498
-47.392,170.582
-47.366,170.665
-47.341,170.748
-47.315,170.831
-47.289,170.914
-47.262,170.997
-47.236,171.080
-47.210,171.162
-47.158,171.328
-47.131,171.410
-47.105,171.492
-47.078,171.575
-47.052,171.657
-47.025,171.739
-46.998,171.821
-46.972,171.903
-46.945,171.985
-46.891,172.148
-46.864,172.230
-46.837,172.311
-46.809,172.393
-46.782,172.474
-46.755,172.556
-46.728,172.637
-46.700,172.718
-46.673,172.799
-46.645,172.880
-46.618,172.961
-46.562,173.122
-46.534,173.202
-46.506,173.283
-46.479,173.363
-46.451,173.444
-46.422,173.524
-46.394,173.604
-46.366,173.684
-46.338,173.764
-46.281,173.924
-46.253,174.003
-46.224,174.083
-46.196,174.162
-46.167,174.242
-46.139,174.321
-46.110,174.400
-46.081,174.479
-46.052,174.559
-46.023,174.638
-45.965,174.795
-45.936,174.874
-45.907,174.953
-45.878,175.031
-45.849,175.110
-45.819,175.188
-45.790,175.266
-45.761,175.345
-45.731,175.423
-45.701,175.501
-45.642,175.657
-45.613,175.734
-45.582,175.812
-45.553,175.890
-45.523,175.967
-45.493,176.045
-45.463,176.122
-45.433,176.199
-45.402,176.276
-45.372,176.354
-45.312,176.508
-45.281,176.584
-45.251,176.661
-45.221,176.737
-45.190,176.814
-45.159,176.891
-45.129,176.967
-45.098,177.043
-45.067,177.119
-45.036,177.196
-44.974,177.348
-44.943,177.424
-44.912,177.499
-44.881,177.575
-44.850,177.651
-44.819,177.726
-44.788,177.802
-44.756,177.877
-44.725,177.952
-44.693,178.028
-44.630,178.177
-44.599,178.252
-44.567,178.327
-44.535,178.402
-44.504,178.477
-44.472,178.551
-44.440,178.626
-44.408,178.700
-44.376,178.774
-44.344,178.849
-44.280,178.997
-44.248,179.071
-44.215,179.145
-44.183,179.219
-44.151,179.292
-44.118,179.366
-44.086,179.439
-44.053,179.513
-44.021,179.586
-43.955,179.733
-43.922,179.806
-43.890,179.879
-43.857,179.952
-43.824,-179.975
-43.791,-179.902
-43.758,-179.830
-43.725,-179.757
-43.692,-179.685
-43.659,-179.612
-43.592,-179.468
-43.559,-179.396
-43.526,-179.323
-43.492,-179.251
-43.459,-179.179
-43.425,-179.108
-43.392,-179.036
-43.358,-178.964
-43.324,-178.892
-43.291,-178.821
-43.223,-178.678
-43.189,-178.607
-43.155,-178.536
-43.121,-178.465
-43.088,-178.394
-43.053,-178.323
-43.019,-178.252
-42.985,-178.181
-42.951,-178.111
-42.882,-177.969
-42.848,-177.899
-42.814,-177.829
-42.779,-177.758
-42.745,-177.688
-42.710,-177.618
-42.676,-177.548
-42.641,-177.478
-42.606,-177.408
-42.571,-177.339
-42.502,-177.199
-42.467,-177.130
-42.432,-177.060
-42.397,-176.991
-42.362,-176.922
-42.327,-176.852
-42.292,-176.783
-42.257,-176.714
-42.222,-176.645
-42.186,-176.576
-42.116,-176.439
-42.080,-176.370
-42.045,-176.302
-42.009,-176.233
-41.974,-176.165
-41.938,-176.097
-41.903,-176.029
-41.867,-175.960
-41.831,-175.892
-41.760,-175.756
-41.724,-175.689
-41.688,-175.621
-41.652,-175.553
-41.616,-175.486
-41.580,-175.418
-41.544,-175.351
-41.508,-175.283
-41.472,-175.216
-41.436,-175.149
-41.363,-175.015
-41.327,-174.948
-41.290,-174.881
-41.254,-174.814
-41.218,-174.748
-41.181,-174.681
-41.144,-174.614
-41.108,-174.548
-41.071,-174.482
-41.034,-174.415
-40.961,-174.283
-40.924,-174.217
-40.887,-174.151
-40.851,-174.085
-40.814,-174.019
-40.777,-173.953
-40.739,-173.888
-40.702,-173.822
-40.665,-173.757
-40.628,-173.691
-40.554,-173.561
-40.516,-173.495
-40.479,-173.430
-40.442,-173.365
-40.404,-173.300
-40.367,-173.235
-40.329,-173.171
-40.292,-173.106
-40.254,-173.041
-40.217,-172.976
-40.141,-172.848
-40.104,-172.783
-40.066,-172.719
-40.028,-172.655
-39.990,-172.591
-39.952,-172.526
-39.914,-172.462
-39.877,-172.399
-39.801,-172.271
-39.762,-172.207
-39.724,-172.144
-39.686,-172.080
-39.648,-172.017
-39.610,-171.953
-39.571,-171.890
-39.533,-171.827
-39.456,-171.700
-39.418,-171.638
-39.379,-171.574
-39.341,-171.512
-39.302,-171.449
-39.264,-171.386
-39.225,-171.323
-39.186,-171.261
-39.148,-171.198
-39.070,-171.074
-39.031,-171.011
-38.992,-170.949
-38.954,-170.887
-38.915,-170.825
-38.876,-170.763
-38.837,-170.701
-38.798,-170.639
-38.759,-170.577
-38.719,-170.516
-38.641,-170.392
-38.602,-170.331
-38.563,-170.269
-38.523,-170.208
-38.484,-170.147
-38.445,-170.086
-38.405,-170.025
-38.366,-169.964
-38.326,-169.902
-38.287,-169.842
-38.208,-169.720
-38.168,-169.659
-38.128,-169.599
-38.089,-169.538
-38.049,-169.478
-38.009,-169.417
-37.969,-169.357
-37.929,-169.297
-37.889,-169.236
-37.850,-169.176
-37.770,-169.056
-37.730,-168.996
-37.690,-168.936
-37.649,-168.877
-37.609,-168.817
-37.569,-168.757
-37.529,-168.698
-37.489,-168.638
-37.449,-168.579
-37.408,-168.519
-37.328,-168.401
-37.287,-168.342
-37.247,-168.283
-37.206,-168.223
-37.166,-168.164
-37.125,-168.106
-37.085,-168.047
-37.044,-167.988
-37.004,-167.929
-36.922,-167.812
-36.881,-167.754
-36.841,-167.695
-36.800,-167.637
-36.759,-167.579
-36.718,-167.520
-36.677,-167.462
-36.636,-167.404
-36.595,-167.346
-36.554,-167.288
-36.472,-167.172
-36.431,-167.114
-36.390,-167.057
-36.349,-166.999
-36.308,-166.942
-36.267,-166.884
-36.225,-166.827
-36.184,-166.769
-36.143,-166.712
-36.101,-166.655
-36.019,-166.540
-35.977,-166.483
-35.936,-166.426
-35.894,-166.369
-35.852,-166.312
-35.811,-166.256
-35.769,-166.199
-35.728,-166.142
-35.686,-166.086
-35.644,-166.029
-35.561,-165.916
-35.519,-165.860
-35.478,-165.804
-35.436,-165.747
-35.394,-165.691
-35.352,-165.635
-35.310,-165.579
-35.268,-165.523
-35.226,-165.467
-35.142,-165.356
-35.100,-165.300
-35.058,-165.244
-35.016,-165.188
-34.973,-165.133
-34.931,-165.078
-34.889,-165.022
-34.847,-164.967
-34.804,-164.911
-34.762,-164.856
-34.677,-164.746
-34.635,-164.691
-34.593,-164.636
-34.550,-164.581
-34.508,-164.526
-34.465,-164.471
-34.423,-164.416
-34.380,-164.362
-34.338,-164.307
-34.295,-164.252
-34.209,-164.144
-34.167,-164.089
-34.124,-164.035
-34.081,-163.981
-34.039,-163.926
-33.996,-163.872
-33.953,-163.818
-33.910,-163.764
-33.867,-163.710
-33.781,-163.602
-33.738,-163.548
-33.695,-163.494
-33.652,-163.441
-33.609,-163.387
-33.566,-163.334
-33.523,-163.280
-33.480,-163.227
-33.437,-163.173
-33.393,-163.120
-33.307,-163.013
-33.264,-162.960
-33.220,-162.907
-33.177,-162.854
-33.134,-162.801
-33.090,-162.748
-33.047,-162.695
-33.003,-162.642
-32.960,-162.589
-32.916,-162.537
-32.829,-162.432
-32.786,-162.379
-32.742,-162.326
-32.699,-162.274
-32.655,-162.222
-32.611,-162.169
-32.568,-162.117
-32.524,-162.065
-32.480,-162.012
-32.436,-161.961
-32.349,-161.856
-32.305,-161.804
-32.261,-161.752
-32.217,-161.701
-32.173,-161.649
-32.129,-161.597
-32.085,-161.546
-32.041,-161.494
-31.997,-161.442
-31.953,-161.391
-31.865,-161.288
-31.821,-161.236
-31.777,-161.185
-31.732,-161.134
-31.688,-161.083
-31.644,-161.032
-31.600,-160.981
-31.556,-160.929
-31.511,-160.878
-31.467,-160.828
-31.378,-160.726
-31.334,-160.675
-31.290,-160.624
-31.245,-160.574
-31.201,-160.523
-31.156,-160.472
-31.112,-160.422
-31.067,-160.371
-31.023,-160.321
-30.934,-160.220
-30.889,-160.170
-30.844,-160.120
-30.800,-160.069
-30.755,-160.019
-30.710,-159.969
-30.666,-159.919
-30.621,-159.869
-30.576,-159.819
-30.531,-159.769
-30.442,-159.670
-30.397,-159.620
-30.352,-159.571
-30.307,-159.521
-30.262,-159.471
-30.217,-159.422
-30.172,-159.372
-30.127,-159.323
-30.082,-159.274
-30.037,-159.224
-29.947,-159.126
-29.902,-159.076
-29.857,-159.028
-29.812,-158.978
-29.766,-158.929
-29.721,-158.880
-29.676,-158.831
-29.631,-158.783
-29.586,-158.734
-29.540,-158.685
-29.450,-158.587
-29.404,-158.539
-29.359,-158.490
-29.314,-158.441
-29.268,-158.393
-29.223,-158.344
-29.177,-158.296
-29.132,-158.248
-29.086,-158.199
-29.041,-158.151
-28.950,-158.055
-28.904,-158.006
-28.859,-157.958
-28.813,-157.910
-28.768,-157.862
-28.722,-157.814
-28.676,-157.766
-28.631,-157.719
-28.585,-157.671
-28.493,-157.575
-28.448,-157.528
-28.402,-157.480
-28.356,-157.432
-28.310,-157.385
-28.264,-157.337
-28.218,-157.290
-28.172,-157.242
-28.127,-157.195
-28.081,-157.147
-27.989,-157.053
-27.943,-157.006
-27.897,-156.959
-27.851,-156.911
-27.805,-156.864
-27.759,-156.818
-27.713,-156.770
-27.667,-156.723
-27.621,-156.677
-27.574,-156.630
-27.482,-156.536
-27.436,-156.489
-27.390,-156.443
-27.343,-156.396
-27.297,-156.349
-27.251,-156.303
-27.205,-156.256
-27.158,-156.210
-27.112,-156.163
-27.066,-156.117
-26.973,-156.024
-26.927,-155.978
-26.880,-155.932
-26.834,-155.886
-26.787,-155.839
-26.741,-155.793
-26.694,-155.747
-26.601,-155.655
-26.555,-155.609
-26.508,-155.564
-26.462,-155.518
-26.415,-155.472
-26.369,-155.426
-26.322,-155.380
-26.275,-155.335
-26.229,-155.289
-26.182,-155.243
-26.089,-155.152
-26.042,-155.107
-25.995,-155.061
-25.948,-155.016
-25.902,-154.971
-25.855,-154.925
-25.808,-154.880
-25.761,-154.835
-25.714,-154.789
-25.668,-154.744
-25.574,-154.654
-25.527,-154.609
-25.480,-154.564
-25.433,-154.519
-25.386,-154.474
-25.339,-154.429
-25.292,-154.384
-25.245,-154.339
-25.198,-154.294
-25.104,-154.205
-25.057,-154.160
-25.010,-154.116
-24.962,-154.071
-24.916,-154.026
-24.868,-153.982
-24.821,-153.938
-24.774,-153.893
-24.727,-153.849
-24.680,-153.804
-24.585,-153.716
-24.538,-153.671
-24.491,-153.627
-24.443,-153.583
-24.396,-153.539
-24.349,-153.494
-24.301,-153.450
-24.254,-153.406
-24.207,-153.362
-24.159,-153.318
-24.065,-153.230
-24.017,-153.186
-23.970,-153.142
-23.922,-153.099
-23.875,-153.055
-23.828,-153.011
-23.780,-152.968
-23.732,-152.924
-23.685,-152.880
-23.638,-152.837
-23.542,-152.749
-23.495,-152.706
-23.447,-152.662
-23.399,-152.619
-23.352,-152.576
-23.304,-152.533
-23.257,-152.489
-23.209,-152.446
-23.161,-152.402
-23.114,-152.359
-23.018,-152.273
-22.970,-152.230
-22.922,-152.187
-22.875,-152.144
-22.827,-152.101
-22.779,-152.058
-22.731,-152.015
-22.684,-151.972
-22.636,-151.929
-22.540,-151.843
-22.492,-151.800
-22.444,-151.758
-22.396,-151.715
-22.349,-151.672
-22.301,-151.629
-22.253,-151.587
-22.205,-151.544
-22.157,-151.502
-22.109,-151.459
-22.061,-151.417
-21.965,-151.332
-21.917,-151.289
-21.869,-151.247
-21.821,-151.204
-21.772,-151.162
-21.724,-151.120
-21.676,-151.078
-21.628,-151.035
-21.580,-150.993
-21.484,-150.909
-21.436,-150.867
-21.388,-150.825
-21.339,-150.783
-21.291,-150.741
-21.243,-150.699
-21.194,-150.657
-21.146,-150.615
-21.098,-150.573
-21.050,-150.531
-20.953,-150.448
-20.905,-150.406
-20.857,-150.364
-20.808,-150.322
-20.760,-150.281
-20.711,-150.239
-20.663,-150.197
-20.615,-150.156
-20.566,-150.114
-20.518,-150.072
-20.421,-149.989
-20.373,-149.948
-20.324,-149.907
-20.276,-149.865
-20.227,-149.824
-20.179,-149.783
-20.130,-149.741
-20.082,-149.700
-20.033,-149.659
-19.936,-149.576
-19.888,-149.535
-19.839,-149.494
-19.791,-149.453
-19.742,-149.412
-19.693,-149.371
-19.645,-149.330
-19.596,-149.289
-19.548,-149.247
-19.499,-149.207
-19.401,-149.125
-19.353,-149.084
-19.304,-149.043
-19.255,-149.002
-19.207,-148.961
-19.158,-148.921
-19.109,-148.880
-19.060,-148.839
-19.012,-148.799
-18.963,-148.758
-18.865,-148.677
-18.816,-148.636
-18.768,-148.596
-18.719,-148.555
-18.670,-148.514
-18.621,-148.474
-18.572,-148.434
-18.523,-148.393
-18.474,-148.353
-18.426,-148.312
-18.328,-148.232
-18.279,-148.191
-18.230,-148.151
-18.181,-148.111
-18.132,-148.071
-18.083,-148.031
-18.034,-147.990
-17.985,-147.950
-17.936,-147.910
-17.838,-147.830
-17.789,-147.790
-17.740,-147.750
-17.691,-147.710
-17.642,-147.670
-17.593,-147.630
-17.544,-147.590
-17.495,-147.550
-17.446,-147.510
-17.396,-147.470
-17.298,-147.391
-17.249,-147.351
-17.200,-147.311
-17.151,-147.271
-17.102,-147.232
-17.053,-147.192
-17.003,-147.152
-16.954,-147.112
-16.905,-147.073
-16.856,-147.033
-16.757,-146.954
-16.708,-146.915
-16.659,-146.875
-16.609,-146.836
-16.560,-146.796
-16.511,-146.757
-16.462,-146.717
-16.412,-146.678
-16.363,-146.638
-16.314,-146.599
-16.215,-146.521
-16.166,-146.481
-16.116,-146.442
-16.067,-146.402
-16.018,-146.363
-15.968,-146.324
-15.919,-146.285
-15.869,-146.246
-15.820,-146.207
-15.721,-146.128
-15.672,-146.089
-15.622,-146.050
-15.573,-146.011
-15.524,-145.972
-15.474,-145.933
-15.425,-145.894
-15.375,-145.855
-15.326,-145.816
-15.276,-145.778
-15.177,-145.700
-15.128,-145.661
-15.078,-145.622
-15.029,-145.583
-14.979,-145.544
-14.929,-145.506
-14.880,-145.467
-14.830,-145.428
-14.781,-145.389
-14.731,-145.351
-14.632,-145.273
-14.582,-145.235
-14.533,-145.196
-14.483,-145.158
-14.434,-145.119
-14.384,-145.080
-14.334,-145.042
-14.285,-145.003
-14.235,-144.965
-14.185,-144.926
-14.086,-144.849
-14.036,-144.811
-13.986,-144.772
-13.937,-144.734
-13.887,-144.696
-13.837,-144.657
-13.788,-144.619
-13.738,-144.581
-13.688,-144.542
-13.589,-144.466
-13.539,-144.427
-13.489,-144.389
-13.439,-144.351
-13.389,-144.313
-13.340,-144.275
-13.290,-144.237
-13.240,-144.198
-13.190,-144.160
-13.141,-144.122
-13.041,-144.046
-12.991,-144.008
-12.941,-143.970
-12.891,-143.932
-12.841,-143.894
-12.791,-143.856
-12.742,-143.818
-12.692,-143.780
-12.642,-143.742
-12.592,-143.704
-12.492,-143.628
-12.442,-143.590
-12.392,-143.552
-12.342,-143.515
-12.292,-143.477
-12.242,-143.439
-12.142,-143.363
-12.093,-143.326
-12.042,-143.288
-11.992,-143.250
-11.942,-143.212
-11.892,-143.175
-11.843,-143.137
-11.792,-143.099
-11.742,-143.062
-11.692,-143.024
-11.593,-142.949
-11.542,-142.911
-11.492,-142.874
-11.442,-142.836
-11.392,-142.799
-11.342,-142.761
-11.292,-142.723
-11.242,-142.686
-11.192,-142.648
-11.142,-142.611
-11.042,-142.536
-10.992,-142.499
-10.942,-142.461
-10.891,-142.424
-10.841,-142.386
-10.791,-142.349
-10.741,-142.312
-10.691,-142.274
-10.641,-142.237
-10.591,-142.199
-10.490,-142.125
-10.440,-142.088
-10.390,-142.050
-10.340,-142.013
-10.290,-141.976
-10.239,-141.939
-10.189,-141.901
-10.139,-141.864
-10.089,-141.827
-10.039,-141.790
-9.938,-141.716
-9.888,-141.678
-9.838,-141.641
-9.788,-141.604
-9.737,-141.567
-9.687,-141.530
-9.637,-141.493
-9.587,-141.456
-9.536,-141.419
-9.486,-141.382
-9.386,-141.308
-9.335,-141.271
-9.285,-141.234
-9.235,-141.196
-9.184,-141.159
-9.134,-141.122
-9.084,-141.086
-9.034,-141.049
-8.983,-141.012
-8.882,-140.938
-8.832,-140.901
-8.782,-140.864
-8.732,-140.827
-8.681,-140.790
-8.631,-140.754
-8.581,-140.717
-8.530,-140.680
-8.480,-140.643
-8.429,-140.606
-8.329,-140.533
-8.278,-140.496
-8.228,-140.459
-8.178,-140.422
